# 1-bromo-adamantane                                             Feff 8.50L  
# POT  Non-SCF, core-hole, AFOLP (folp(0)= 1.150)
# Abs   Z=35 Rmt= 1.346 Rnm= 1.565 K  shell
# Pot 1 Z= 6 Rmt= 0.889 Rnm= 1.046
# Pot 2 Z= 1 Rmt= 0.840 Rnm= 0.972
# Gam_ch=3.018E+00 H-L exch
# Mu= 4.480E+00 kf=2.227E+00 Vint=-1.442E+01 Rs_int= 1.628
# PATH  Rmax= 3.500,  Keep_limit= 0.00, Heap_limit 0.00  Pwcrit= 2.50%
#  S02=0.919                                        Global_sig2= 0.00000
#  Curved wave amplitude ratio filter   4.000%
#     file         sig2 tot  cw amp ratio   deg  nlegs   reff  inp sig2
#           1       0.00000    100.00      1.00     2   1.9521
#           2       0.00000    124.70      3.00     2   2.8567
#           3       0.00000     36.46      6.00     2   3.0185
#           4       0.00000     44.99      4.00     3   3.1734
#           5       0.00000     22.50      2.00     3   3.1732
#           6       0.00000     14.74      8.00     3   3.4865
#           7       0.00000      7.37      4.00     3   3.4868
#           9       0.00000      7.39      2.00     4   3.4899
#     8/   9 paths used
#  xsedge+50, used to normalize mu           1.6493E-04
#  -----------------------------------------------------------------------
#  omega    e    k    mu    mu0     chi     @#
   13478.757      4.480   0.000  6.01337E-01  5.05373E-01  9.28808E-02
   13478.766      4.490   0.050  6.05040E-01  5.09446E-01  9.25466E-02
   13478.795      4.518   0.100  6.08742E-01  5.13519E-01  9.22122E-02
   13478.843      4.566   0.150  6.19805E-01  5.25694E-01  9.12080E-02
   13478.909      4.633   0.200  6.30867E-01  5.37868E-01  9.02012E-02
   13478.995      4.718   0.250  6.48792E-01  5.57645E-01  8.85200E-02
   13479.100      4.823   0.300  6.66716E-01  5.77422E-01  8.68324E-02
   13479.224      4.947   0.350  6.89838E-01  6.03130E-01  8.44646E-02
   13479.366      5.090   0.400  7.12957E-01  6.28838E-01  8.20850E-02
   13479.528      5.252   0.450  7.38121E-01  6.57327E-01  7.90093E-02
   13479.709      5.433   0.500  7.63284E-01  6.85815E-01  7.59193E-02
   13479.909      5.633   0.550  7.86612E-01  7.13223E-01  7.21035E-02
   13480.128      5.852   0.600  8.09944E-01  7.40630E-01  6.82728E-02
   13480.367      6.090   0.650  8.28706E-01  7.64168E-01  6.37428E-02
   13480.624      6.347   0.700  8.47486E-01  7.87706E-01  5.92074E-02
   13480.900      6.623   0.750  8.60715E-01  8.06410E-01  5.39447E-02
   13481.195      6.919   0.800  8.73989E-01  8.25115E-01  4.86960E-02
   13481.510      7.233   0.850  8.82003E-01  8.39257E-01  4.27214E-02
   13481.843      7.566   0.900  8.90104E-01  8.53399E-01  3.67966E-02
   13482.195      7.919   0.950  8.93830E-01  8.63836E-01  3.01640E-02
   13482.567      8.290   1.000  8.97704E-01  8.74273E-01  2.36381E-02
   13482.957      8.681   1.050  8.98118E-01  8.81866E-01  1.64470E-02
   13483.367      9.090   1.100  8.98763E-01  8.89459E-01  9.44467E-03
   13483.796      9.519   1.150  8.96791E-01  8.94965E-01  1.85988E-03
   13484.243      9.967   1.200  8.95155E-01  9.00470E-01 -5.42749E-03
   13484.710     10.433   1.250  8.91620E-01  9.04489E-01 -1.31763E-02
   13485.196     10.919   1.300  8.88545E-01  9.08508E-01 -2.04957E-02
   13485.701     11.424   1.350  8.84167E-01  9.11477E-01 -2.81070E-02
   13486.224     11.948   1.400  8.80385E-01  9.14446E-01 -3.51417E-02
   13486.767     12.491   1.450  8.75859E-01  9.16728E-01 -4.22547E-02
   13487.329     13.053   1.500  8.72062E-01  9.19011E-01 -4.86425E-02
   13487.910     13.634   1.550  8.67982E-01  9.20847E-01 -5.48643E-02
   13488.510     14.234   1.600  8.64748E-01  9.22684E-01 -6.02277E-02
   13489.130     14.853   1.650  8.61686E-01  9.24302E-01 -6.51723E-02
   13489.768     15.491   1.700  8.59557E-01  9.25920E-01 -6.91579E-02
   13490.425     16.148   1.750  8.57920E-01  9.27445E-01 -7.25030E-02
   13491.101     16.825   1.800  8.57255E-01  9.28969E-01 -7.48380E-02
   13491.797     17.520   1.850  8.57375E-01  9.30542E-01 -7.63653E-02
   13492.511     18.234   1.900  8.58454E-01  9.32114E-01 -7.68931E-02
   13493.244     18.968   1.950  8.60522E-01  9.33867E-01 -7.65328E-02
   13493.997     19.720   2.000  8.63472E-01  9.35620E-01 -7.52530E-02
   13494.768     20.492   2.050  8.67458E-01  9.37606E-01 -7.30689E-02
   13495.559     21.282   2.100  8.72249E-01  9.39592E-01 -7.00543E-02
   13496.368     22.092   2.150  8.77699E-01  9.41578E-01 -6.63625E-02
   13497.197     22.921   2.200  8.83673E-01  9.43564E-01 -6.21371E-02
   13498.045     23.768   2.250  8.90764E-01  9.45707E-01 -5.68232E-02
   13498.912     24.635   2.300  8.98317E-01  9.47851E-01 -5.10661E-02
   13499.797     25.521   2.350  9.06180E-01  9.49994E-01 -4.50269E-02
   13500.702     26.426   2.400  9.14215E-01  9.52138E-01 -3.88494E-02
   13501.626     27.350   2.450  9.21354E-01  9.53034E-01 -3.24261E-02
   13502.569     28.293   2.500  9.28373E-01  9.53931E-01 -2.61365E-02
   13503.531     29.255   2.550  9.35196E-01  9.54827E-01 -2.00586E-02
   13504.512     30.236   2.600  9.41776E-01  9.55724E-01 -1.42391E-02
   13505.512     31.236   2.650  9.46275E-01  9.54519E-01 -8.41261E-03
   13506.532     32.255   2.700  9.50632E-01  9.53315E-01 -2.73674E-03
   13507.570     33.293   2.750  9.54754E-01  9.52111E-01  2.69416E-03
   13508.627     34.351   2.800  9.58551E-01  9.50907E-01  7.78751E-03
   13509.703     35.427   2.850  9.65048E-01  9.52154E-01  1.31086E-02
   13510.799     36.522   2.900  9.70952E-01  9.53401E-01  1.78055E-02
   13511.913     37.637   2.950  9.76181E-01  9.54647E-01  2.18003E-02
   13513.047     38.770   3.000  9.80678E-01  9.55894E-01  2.50379E-02
   13514.199     39.923   3.050  9.85514E-01  9.58184E-01  2.75664E-02
   13515.371     41.094   3.100  9.89499E-01  9.60474E-01  2.92290E-02
   13516.561     42.285   3.150  9.92636E-01  9.62764E-01  3.00351E-02
   13517.771     43.494   3.200  9.94959E-01  9.65054E-01  3.00203E-02
   13519.000     44.723   3.250  9.96645E-01  9.67189E-01  2.95460E-02
   13520.248     45.971   3.300  9.97647E-01  9.69324E-01  2.83872E-02
   13521.514     47.238   3.350  9.98028E-01  9.71459E-01  2.66085E-02
   13522.800     48.524   3.400  9.97871E-01  9.73594E-01  2.42930E-02
   13524.105     49.829   3.450  9.97233E-01  9.75447E-01  2.17977E-02
   13525.429     51.153   3.500  9.96184E-01  9.77299E-01  1.88907E-02
   13526.772     52.496   3.550  9.94830E-01  9.79151E-01  1.56809E-02
   13528.134     53.858   3.600  9.93290E-01  9.81003E-01  1.22864E-02
   13529.515     55.239   3.650  9.91244E-01  9.82435E-01  8.81006E-03
   13530.916     56.639   3.700  9.89204E-01  9.83867E-01  5.33805E-03
   13532.335     58.058   3.750  9.87294E-01  9.85300E-01  1.99545E-03
   13533.773     59.496   3.800  9.85630E-01  9.86732E-01 -1.10343E-03
   13535.230     60.954   3.850  9.83766E-01  9.87706E-01 -3.94389E-03
   13536.707     62.430   3.900  9.82323E-01  9.88679E-01 -6.36536E-03
   13538.202     63.926   3.950  9.81362E-01  9.89652E-01 -8.30651E-03
   13539.717     65.440   4.000  9.80916E-01  9.90626E-01 -9.73243E-03
   13541.250     66.974   4.050  9.80434E-01  9.91060E-01 -1.06543E-02
   13542.803     68.526   4.100  9.80485E-01  9.91494E-01 -1.10422E-02
   13544.374     70.098   4.150  9.81016E-01  9.91928E-01 -1.09489E-02
   13545.965     71.688   4.200  9.81959E-01  9.92362E-01 -1.04419E-02
   13547.575     73.298   4.250  9.82833E-01  9.92372E-01 -9.57694E-03
   13549.203     74.927   4.300  9.83983E-01  9.92382E-01 -8.43544E-03
   13550.851     76.575   4.350  9.85310E-01  9.92392E-01 -7.11391E-03
   13552.518     78.242   4.400  9.86718E-01  9.92401E-01 -5.71164E-03
   13554.204     79.927   4.450  9.87553E-01  9.91872E-01 -4.34193E-03
   13555.909     81.632   4.500  9.88287E-01  9.91342E-01 -3.07223E-03
   13557.633     83.356   4.550  9.88845E-01  9.90812E-01 -1.97870E-03
   13559.376     85.100   4.600  9.89169E-01  9.90283E-01 -1.12067E-03
   13561.138     86.862   4.650  9.89038E-01  9.89580E-01 -5.45571E-04
   13562.919     88.643   4.700  9.88618E-01  9.88877E-01 -2.60831E-04
   13564.720     90.443   4.750  9.87912E-01  9.88174E-01 -2.64815E-04
   13566.539     92.262   4.800  9.86940E-01  9.87471E-01 -5.35636E-04
   13568.377     94.101   4.850  9.85410E-01  9.86426E-01 -1.02531E-03
   13570.235     95.958   4.900  9.83711E-01  9.85380E-01 -1.68642E-03
   13572.111     97.834   4.950  9.81908E-01  9.84335E-01 -2.45431E-03
   13574.006     99.730   5.000  9.80070E-01  9.83289E-01 -3.25814E-03
   13575.921    101.644   5.050  9.78281E-01  9.82248E-01 -4.01811E-03
   13577.855    103.578   5.100  9.76596E-01  9.81207E-01 -4.67473E-03
   13579.807    105.531   5.150  9.75075E-01  9.80166E-01 -5.16605E-03
   13581.779    107.502   5.200  9.73767E-01  9.79125E-01 -5.44107E-03
   13583.770    109.493   5.250  9.72827E-01  9.78198E-01 -5.45927E-03
   13585.779    111.503   5.300  9.72155E-01  9.77270E-01 -5.20324E-03
   13587.808    113.532   5.350  9.71758E-01  9.76343E-01 -4.66777E-03
   13589.856    115.579   5.400  9.71623E-01  9.75415E-01 -3.86452E-03
   13591.923    117.646   5.450  9.71842E-01  9.74602E-01 -2.81489E-03
   13594.009    119.732   5.500  9.72254E-01  9.73788E-01 -1.56572E-03
   13596.114    121.837   5.550  9.72808E-01  9.72974E-01 -1.70424E-04
   13598.238    123.961   5.600  9.73442E-01  9.72161E-01  1.30910E-03
   13600.381    126.104   5.650  9.74344E-01  9.71586E-01  2.82044E-03
   13602.543    128.267   5.700  9.75197E-01  9.71012E-01  4.28280E-03
   13604.724    130.448   5.750  9.75935E-01  9.70437E-01  5.62912E-03
   13606.925    132.648   5.800  9.76498E-01  9.69862E-01  6.79835E-03
   13609.144    134.867   5.850  9.77087E-01  9.69521E-01  7.75387E-03
   13611.382    137.106   5.900  9.77409E-01  9.69179E-01  8.43725E-03
   13613.640    139.363   5.950  9.77438E-01  9.68838E-01  8.81993E-03
   13615.916    141.640   6.000  9.77161E-01  9.68496E-01  8.88835E-03
   13618.212    143.935   6.050  9.76975E-01  9.68529E-01  8.66445E-03
   13620.526    146.250   6.100  9.76488E-01  9.68562E-01  8.13088E-03
   13622.860    148.583   6.150  9.75726E-01  9.68595E-01  7.31587E-03
   13625.213    150.936   6.200  9.74730E-01  9.68628E-01  6.26041E-03
   13627.584    153.308   6.250  9.73549E-01  9.68660E-01  5.01558E-03
   13629.975    155.699   6.300  9.72241E-01  9.68693E-01  3.63961E-03
   13632.385    158.108   6.350  9.70865E-01  9.68726E-01  2.19458E-03
   13634.814    160.537   6.400  9.69483E-01  9.68759E-01  7.43088E-04
   13637.262    162.985   6.450  9.68153E-01  9.68791E-01 -6.54933E-04
   13639.729    165.452   6.500  9.66928E-01  9.68824E-01 -1.94513E-03
   13642.215    167.938   6.550  9.65809E-01  9.68865E-01 -3.13550E-03
   13644.720    170.443   6.600  9.64865E-01  9.68907E-01 -4.14486E-03
   13647.244    172.967   6.650  9.64128E-01  9.68948E-01 -4.94153E-03
   13649.787    175.510   6.700  9.63618E-01  9.68989E-01 -5.50548E-03
   13652.349    178.073   6.750  9.63343E-01  9.69030E-01 -5.82853E-03
   13654.931    180.654   6.800  9.63300E-01  9.69072E-01 -5.91398E-03
   13657.531    183.254   6.850  9.63475E-01  9.69113E-01 -5.77562E-03
   13660.150    185.874   6.900  9.63846E-01  9.69154E-01 -5.43631E-03
   13662.789    188.512   6.950  9.64385E-01  9.69195E-01 -4.92622E-03
   13665.446    191.169   7.000  9.65055E-01  9.69236E-01 -4.28079E-03
   13668.123    193.846   7.050  9.65450E-01  9.68946E-01 -3.57972E-03
   13670.818    196.542   7.100  9.65921E-01  9.68656E-01 -2.80152E-03
   13673.533    199.256   7.150  9.66429E-01  9.68365E-01 -1.98371E-03
   13676.266    201.990   7.200  9.66941E-01  9.68075E-01 -1.16249E-03
   13679.019    204.743   7.250  9.67422E-01  9.67785E-01 -3.71348E-04
   13681.791    207.514   7.300  9.67846E-01  9.67495E-01  3.60048E-04
   13684.582    210.305   7.350  9.68186E-01  9.67204E-01  1.00673E-03
   13687.392    213.115   7.400  9.68425E-01  9.66914E-01  1.54904E-03
   13690.220    215.944   7.450  9.68548E-01  9.66624E-01  1.97311E-03
   13693.068    218.792   7.500  9.68547E-01  9.66333E-01  2.27104E-03
   13695.935    221.659   7.550  9.68191E-01  9.65769E-01  2.48527E-03
   13698.822    224.545   7.600  9.67718E-01  9.65206E-01  2.57907E-03
   13701.727    227.450   7.650  9.67132E-01  9.64642E-01  2.55810E-03
   13704.651    230.374   7.700  9.66446E-01  9.64078E-01  2.43290E-03
   13707.594    233.317   7.750  9.65672E-01  9.63514E-01  2.21815E-03
   13710.556    236.280   7.800  9.64829E-01  9.62950E-01  1.93192E-03
   13713.538    239.261   7.850  9.63936E-01  9.62386E-01  1.59468E-03
   13716.538    242.261   7.900  9.63016E-01  9.61822E-01  1.22832E-03
   13719.557    245.281   7.950  9.62089E-01  9.61259E-01  8.55071E-04
   13722.596    248.319   8.000  9.61177E-01  9.60695E-01  4.96343E-04
   13725.653    251.377   8.050  9.59967E-01  9.59800E-01  1.72863E-04
   13728.730    254.453   8.100  9.58804E-01  9.58905E-01 -1.04571E-04
   13731.826    257.549   8.150  9.57698E-01  9.58010E-01 -3.22367E-04
   13734.940    260.664   8.200  9.56659E-01  9.57115E-01 -4.71465E-04
   13738.074    263.797   8.250  9.55691E-01  9.56220E-01 -5.47854E-04
   13741.227    266.950   8.300  9.54792E-01  9.55325E-01 -5.52784E-04
   13744.398    270.122   8.350  9.53955E-01  9.54430E-01 -4.92654E-04
   13747.589    273.313   8.400  9.53171E-01  9.53535E-01 -3.78569E-04
   13750.799    276.523   8.450  9.52423E-01  9.52640E-01 -2.25575E-04
   13754.028    279.752   8.500  9.51696E-01  9.51745E-01 -5.16286E-05
   13757.276    283.000   8.550  9.51137E-01  9.51018E-01  1.23332E-04
   13760.543    286.267   8.600  9.50559E-01  9.50291E-01  2.78790E-04
   13763.829    289.553   8.650  9.49944E-01  9.49564E-01  3.96150E-04
   13767.135    292.858   8.700  9.49278E-01  9.48837E-01  4.59575E-04
   13770.459    296.182   8.750  9.48548E-01  9.48110E-01  4.57215E-04
   13773.802    299.525   8.800  9.47749E-01  9.47383E-01  3.82196E-04
   13777.164    302.888   8.850  9.46879E-01  9.46656E-01  2.33279E-04
   13780.546    306.269   8.900  9.45944E-01  9.45929E-01  1.51388E-05
   13783.946    309.669   8.950  9.44952E-01  9.45202E-01 -2.61763E-04
   13787.366    313.089   9.000  9.43920E-01  9.44475E-01 -5.81716E-04
   13790.804    316.527   9.050  9.42983E-01  9.43861E-01 -9.21326E-04
   13794.262    319.985   9.100  9.42051E-01  9.43247E-01 -1.25655E-03
   13797.738    323.462   9.150  9.41146E-01  9.42632E-01 -1.56324E-03
   13801.234    326.957   9.200  9.40291E-01  9.42018E-01 -1.81795E-03
   13804.749    330.472   9.250  9.39505E-01  9.41404E-01 -1.99947E-03
   13808.282    334.006   9.300  9.38807E-01  9.40790E-01 -2.09037E-03
   13811.835    337.559   9.350  9.38205E-01  9.40175E-01 -2.07822E-03
   13815.407    341.130   9.400  9.37708E-01  9.39561E-01 -1.95654E-03
   13818.998    344.721   9.450  9.37314E-01  9.38947E-01 -1.72543E-03
   13822.608    348.331   9.500  9.37017E-01  9.38333E-01 -1.39169E-03
   13826.237    351.960   9.550  9.36821E-01  9.37732E-01 -9.64108E-04
   13829.885    355.608   9.600  9.36684E-01  9.37131E-01 -4.73053E-04
   13833.552    359.275   9.650  9.36584E-01  9.36530E-01  5.68726E-05
   13837.238    362.962   9.700  9.36493E-01  9.35929E-01  5.98458E-04
   13840.943    366.667   9.750  9.36386E-01  9.35328E-01  1.12349E-03
   13844.668    370.391   9.800  9.36237E-01  9.34727E-01  1.60442E-03
   13848.411    374.134   9.850  9.36021E-01  9.34126E-01  2.01597E-03
   13852.173    377.897   9.900  9.35720E-01  9.33525E-01  2.33663E-03
   13855.955    381.678   9.950  9.35317E-01  9.32924E-01  2.54988E-03
   13859.755    385.479  10.000  9.34804E-01  9.32323E-01  2.64516E-03
   13863.575    389.298  10.050  9.33999E-01  9.31545E-01  2.61953E-03
   13867.413    393.137  10.100  9.33081E-01  9.30767E-01  2.47228E-03
   13871.271    396.994  10.150  9.32059E-01  9.29989E-01  2.21331E-03
   13875.148    400.871  10.200  9.30948E-01  9.29211E-01  1.85874E-03
   13879.043    404.767  10.250  9.29768E-01  9.28434E-01  1.42971E-03
   13882.958    408.681  10.300  9.28542E-01  9.27656E-01  9.50885E-04
   13886.892    412.615  10.350  9.27296E-01  9.26878E-01  4.48779E-04
   13890.845    416.568  10.400  9.26053E-01  9.26100E-01 -4.99354E-05
   13894.817    420.540  10.450  9.24838E-01  9.25322E-01 -5.20072E-04
   13898.808    424.531  10.500  9.23671E-01  9.24544E-01 -9.39360E-04
   13902.818    428.541  10.550  9.22569E-01  9.23766E-01 -1.28960E-03
   13906.847    432.570  10.600  9.21544E-01  9.22988E-01 -1.55745E-03
   13910.895    436.618  10.650  9.20603E-01  9.22210E-01 -1.73493E-03
   13914.962    440.685  10.700  9.19749E-01  9.21432E-01 -1.81943E-03
   13919.048    444.772  10.750  9.18978E-01  9.20654E-01 -1.81352E-03
   13923.153    448.877  10.800  9.18284E-01  9.19876E-01 -1.72440E-03
   13927.278    453.001  10.850  9.17656E-01  9.19098E-01 -1.56316E-03
   13931.421    457.144  10.900  9.17082E-01  9.18320E-01 -1.34388E-03
   13935.583    461.307  10.950  9.16545E-01  9.17542E-01 -1.08264E-03
   13939.765    465.488  11.000  9.16031E-01  9.16764E-01 -7.96548E-04
   13943.965    469.689  11.050  9.15501E-01  9.15954E-01 -4.92949E-04
   13948.185    473.908  11.100  9.14968E-01  9.15143E-01 -1.91302E-04
   13952.424    478.147  11.150  9.14415E-01  9.14333E-01  8.99007E-05
   13956.681    482.405  11.200  9.13829E-01  9.13522E-01  3.34911E-04
   13960.958    486.681  11.250  9.13198E-01  9.12712E-01  5.31718E-04
   13965.254    490.977  11.300  9.12516E-01  9.11902E-01  6.72686E-04
   13969.569    495.292  11.350  9.11780E-01  9.11091E-01  7.54807E-04
   13973.902    499.626  11.400  9.10992E-01  9.10281E-01  7.79556E-04
   13978.255    503.979  11.450  9.10156E-01  9.09470E-01  7.52404E-04
   13982.627    508.351  11.500  9.09281E-01  9.08660E-01  6.82032E-04
   13987.018    512.742  11.550  9.08376E-01  9.07849E-01  5.79364E-04
   13991.428    517.152  11.600  9.07454E-01  9.07039E-01  4.56502E-04
   13995.857    521.581  11.650  9.06524E-01  9.06229E-01  3.25680E-04
   14000.306    526.029  11.700  9.05598E-01  9.05418E-01  1.98321E-04
   14004.773    530.496  11.750  9.04684E-01  9.04608E-01  8.42657E-05
   14009.259    534.982  11.800  9.03790E-01  9.03797E-01 -8.78033E-06
   14013.764    539.488  11.850  9.02919E-01  9.02987E-01 -7.55716E-05
   14018.289    544.012  11.900  9.02074E-01  9.02177E-01 -1.13425E-04
   14022.832    548.556  11.950  9.01256E-01  9.01366E-01 -1.22132E-04
   14027.395    553.118  12.000  9.00462E-01  9.00556E-01 -1.03719E-04
   14031.976    557.699  12.050  8.99756E-01  8.99811E-01 -6.05282E-05
   14036.577    562.300  12.100  8.99071E-01  8.99065E-01  5.94566E-06
   14041.196    566.920  12.150  8.98399E-01  8.98320E-01  8.81023E-05
   14045.835    571.558  12.200  8.97733E-01  8.97575E-01  1.76865E-04
   14050.493    576.216  12.250  8.97065E-01  8.96829E-01  2.62420E-04
   14055.169    580.893  12.300  8.96384E-01  8.96084E-01  3.35015E-04
   14059.865    585.589  12.350  8.95684E-01  8.95339E-01  3.85748E-04
   14064.580    590.303  12.400  8.94958E-01  8.94593E-01  4.07295E-04
   14069.314    595.037  12.450  8.94201E-01  8.93848E-01  3.94527E-04
   14074.067    599.790  12.500  8.93411E-01  8.93103E-01  3.44957E-04
   14078.839    604.562  12.550  8.92588E-01  8.92357E-01  2.59001E-04
   14083.630    609.353  12.600  8.91737E-01  8.91612E-01  1.40021E-04
   14088.440    614.163  12.650  8.90862E-01  8.90867E-01 -5.84522E-06
   14093.269    618.993  12.700  8.89970E-01  8.90121E-01 -1.70072E-04
   14098.117    623.841  12.750  8.89072E-01  8.89376E-01 -3.42299E-04
   14102.985    628.708  12.800  8.88177E-01  8.88631E-01 -5.11044E-04
   14107.871    633.594  12.850  8.87296E-01  8.87885E-01 -6.64492E-04
   14112.776    638.500  12.900  8.86438E-01  8.87140E-01 -7.91335E-04
   14117.701    643.424  12.950  8.85614E-01  8.86395E-01 -8.81585E-04
   14122.644    648.368  13.000  8.84829E-01  8.85649E-01 -9.27307E-04
   14127.607    653.330  13.050  8.83976E-01  8.84790E-01 -9.21067E-04
   14132.588    658.312  13.100  8.83165E-01  8.83931E-01 -8.67224E-04
