# name:     NiO                                                  Feff 8.50L  
# formula:  NiO
# sites:    Ni1,O1
# refer1:   wyckoff 1,III,88
# refer2:
# schoen:
# notes1:   salt, halite
# POT  Non-SCF, core-hole, AFOLP (folp(0)= 1.150)
# Abs   Z=28 Rmt= 1.315 Rnm= 1.375 K  shell
# Pot 1 Z=28 Rmt= 1.320 Rnm= 1.381
# Pot 2 Z= 8 Rmt= 1.014 Rnm= 1.061
# Gam_ch=1.576E+00 H-L exch
# Mu=-3.100E+00 kf=2.249E+00 Vint=-2.236E+01 Rs_int= 1.613
# PATH  Rmax= 4.700,  Keep_limit= 0.00, Heap_limit 0.00  Pwcrit= 2.50%
#  S02=0.951                                        Global_sig2= 0.00000
#  Curved wave amplitude ratio filter   4.000%
#     file         sig2 tot  cw amp ratio   deg  nlegs   reff  inp sig2
#           1       0.00000    100.00      6.00     2   2.0842
#           2       0.00000     94.12     12.00     2   2.9475
#           3       0.00000     13.59     24.00     3   3.5580
#           4       0.00000     18.95     48.00     3   3.5580
#           5       0.00000     35.71      8.00     2   3.6099
#           6       0.00000     20.29      6.00     2   4.1684
#           7       0.00000     14.27      6.00     3   4.1684
#           8       0.00000     51.34     12.00     3   4.1684
#           9       0.00000      9.23      6.00     4   4.1684
#          10       0.00000      4.43      6.00     4   4.1684
#          11       0.00000     32.90      6.00     4   4.1684
#          12       0.00000      5.75     24.00     4   4.1684
#          14       0.00000      6.47     48.00     3   4.3208
#          15       0.00000     18.33     48.00     3   4.3208
#          16       0.00000     20.12     48.00     3   4.3208
#          17       0.00000      7.05     48.00     3   4.4213
#          18       0.00000     54.46     24.00     2   4.6604
#    17/  17 paths used
#  -----------------------------------------------------------------------
#       k          chi          mag           phase @#
     0.0500    9.831218E-02  9.989627E-01  9.857382E-02
     0.1000    1.045827E-01  1.000080E+00  1.047658E-01
     0.1500    1.233859E-01  1.003376E+00  1.232828E-01
     0.2000    1.422813E-01  1.006607E+00  1.418224E-01
     0.2500    1.738677E-01  1.011832E+00  1.726916E-01
     0.3000    2.056273E-01  1.016875E+00  2.036190E-01
     0.3500    2.500030E-01  1.023524E+00  2.467534E-01
     0.4000    2.944759E-01  1.029818E+00  2.899970E-01
     0.4500    3.511427E-01  1.037282E+00  3.453457E-01
     0.5000    4.074453E-01  1.044164E+00  4.008616E-01
     0.5500    4.747082E-01  1.051650E+00  4.683265E-01
     0.6000    5.404847E-01  1.058282E+00  5.360209E-01
     0.6500    6.147917E-01  1.064866E+00  6.154694E-01
     0.7000    6.855677E-01  1.070283E+00  6.952117E-01
     0.7500    7.609222E-01  1.074945E+00  7.864794E-01
     0.8000    8.296319E-01  1.078100E+00  8.781067E-01
     0.8500    8.973465E-01  1.079765E+00  9.810053E-01
     0.9000    9.543354E-01  1.079575E+00  1.084333E+00
     0.9500    1.003438E+00  1.077167E+00  1.198660E+00
     1.0000    1.037257E+00  1.072567E+00  1.313493E+00
     1.0500    1.055835E+00  1.065063E+00  1.439063E+00
     1.1000    1.055049E+00  1.055066E+00  1.565228E+00
     1.1500    1.032628E+00  1.041564E+00  1.701880E+00
     1.2000    9.886084E-01  1.025331E+00  1.839240E+00
     1.2500    9.193573E-01  1.005132E+00  1.986920E+00
     1.3000    8.296109E-01  9.820583E-01  2.135462E+00
     1.3500    7.156035E-01  9.546354E-01  2.294121E+00
     1.4000    5.867371E-01  9.243194E-01  2.453872E+00
     1.4500    4.402996E-01  8.895208E-01  2.623775E+00
     1.5000    2.893077E-01  8.519592E-01  2.795123E+00
     1.5500    1.328425E-01  8.099620E-01  2.976837E+00
     1.6000   -1.453827E-02  7.655062E-01  3.160586E+00
     1.6500   -1.520663E-01  7.168971E-01  3.355334E+00
     1.7000   -2.665711E-01  6.663378E-01  3.553168E+00
     1.7500   -3.566261E-01  6.121874E-01  3.763448E+00
     1.8000   -4.136413E-01  5.568442E-01  3.978882E+00
     1.8500   -4.372056E-01  4.988407E-01  4.210018E+00
     1.9000   -4.257802E-01  4.407658E-01  4.450880E+00
     1.9500   -3.815603E-01  3.815620E-01  4.715343E+00
     2.0000   -3.107559E-01  3.241782E-01  5.001155E+00
     2.0500   -2.174660E-01  2.683428E-01  5.338344E+00
     2.1000   -1.147942E-01  2.188295E-01  5.730960E+00
     2.1500   -1.415068E-02  1.801872E-01  6.204571E+00
     2.2000    7.385164E-02  1.588222E-01  6.766815E+00
     2.2500    1.455137E-01  1.634623E-01  7.380962E+00
     2.3000    1.870844E-01  1.876355E-01  7.930642E+00
     2.3500    1.915488E-01  2.228545E-01  8.390440E+00
     2.4000    1.569830E-01  2.618945E-01  8.782010E+00
     2.4500    8.507044E-02  2.975534E-01  9.134833E+00
     2.5000   -1.019434E-02  3.304677E-01  9.455631E+00
     2.5500   -1.169695E-01  3.589862E-01  9.756670E+00
     2.6000   -2.222079E-01  3.820567E-01  1.004548E+01
     2.6500   -3.017672E-01  3.905579E-01  1.030779E+01
     2.7000   -3.568548E-01  3.935899E-01  1.056009E+01
     2.7500   -3.842012E-01  3.914096E-01  1.080336E+01
     2.8000   -3.840979E-01  3.844440E-01  1.103801E+01
     2.8500   -3.684936E-01  3.812964E-01  1.125545E+01
     2.9000   -3.342070E-01  3.755539E-01  1.146924E+01
     2.9500   -2.849010E-01  3.675031E-01  1.167928E+01
     3.0000   -2.250270E-01  3.574563E-01  1.188543E+01
     3.0500   -1.594303E-01  3.466873E-01  1.208852E+01
     3.1000   -9.202348E-02  3.345482E-01  1.228771E+01
     3.1500   -2.686527E-02  3.213745E-01  1.248268E+01
     3.2000    3.276460E-02  3.075092E-01  1.267312E+01
     3.2500    8.439189E-02  2.927568E-01  1.285879E+01
     3.3000    1.264359E-01  2.777836E-01  1.303892E+01
     3.3500    1.583833E-01  2.628793E-01  1.321299E+01
     3.4000    1.805753E-01  2.483618E-01  1.338041E+01
     3.4500    1.938948E-01  2.344565E-01  1.354012E+01
     3.5000    2.002127E-01  2.217889E-01  1.369242E+01
     3.5500    2.012071E-01  2.105530E-01  1.383810E+01
     3.6000    1.983345E-01  2.008690E-01  1.397814E+01
     3.6500    1.929972E-01  1.930520E-01  1.411333E+01
     3.7000    1.860859E-01  1.871912E-01  1.424589E+01
     3.7500    1.779050E-01  1.832288E-01  1.437882E+01
     3.8000    1.681927E-01  1.809665E-01  1.451514E+01
     3.8500    1.562887E-01  1.802129E-01  1.465832E+01
     3.9000    1.413036E-01  1.805284E-01  1.480894E+01
     3.9500    1.223589E-01  1.815211E-01  1.496825E+01
     4.0000    9.882295E-02  1.828046E-01  1.513682E+01
     4.0500    7.028776E-02  1.836577E-01  1.531523E+01
     4.1000    3.763617E-02  1.841580E-01  1.550214E+01
     4.1500    2.006701E-03  1.840642E-01  1.569706E+01
     4.2000   -3.485764E-02  1.831933E-01  1.589941E+01
     4.2500   -7.074564E-02  1.814631E-01  1.610845E+01
     4.3000   -1.032067E-01  1.787679E-01  1.632341E+01
     4.3500   -1.298798E-01  1.750684E-01  1.654383E+01
     4.4000   -1.487341E-01  1.703669E-01  1.676933E+01
     4.4500   -1.583133E-01  1.647076E-01  1.699920E+01
     4.5000   -1.579644E-01  1.581281E-01  1.723326E+01
     4.5500   -1.479275E-01  1.507132E-01  1.747132E+01
     4.6000   -1.293219E-01  1.425715E-01  1.771329E+01
     4.6500   -1.038656E-01  1.335600E-01  1.795861E+01
     4.7000   -7.428749E-02  1.240547E-01  1.820752E+01
     4.7500   -4.335445E-02  1.142045E-01  1.846017E+01
     4.8000   -1.378824E-02  1.041676E-01  1.871680E+01
     4.8500    1.194023E-02  9.402989E-02  1.897688E+01
     4.9000    3.205464E-02  8.396442E-02  1.924126E+01
     4.9500    4.550709E-02  7.413027E-02  1.951052E+01
     5.0000    5.207873E-02  6.468390E-02  1.978544E+01
     5.0500    5.213713E-02  5.558451E-02  2.006631E+01
     5.1000    4.699827E-02  4.709889E-02  2.035498E+01
     5.1500    3.829871E-02  3.936025E-02  2.065313E+01
     5.2000    2.782865E-02  3.248846E-02  2.096256E+01
     5.2500    1.702541E-02  2.632658E-02  2.128790E+01
     5.3000    7.491230E-03  2.118149E-02  2.162966E+01
     5.3500    9.652413E-05  1.710385E-02  2.198551E+01
     5.4000   -4.868030E-03  1.408251E-02  2.234411E+01
     5.4500   -7.694975E-03  1.183242E-02  2.269917E+01
     5.5000   -8.888524E-03  1.044635E-02  2.300879E+01
     5.5500   -9.337573E-03  9.839599E-03  2.324113E+01
     5.6000   -9.940509E-03  1.008838E-02  2.339052E+01
     5.6500   -1.117516E-02  1.118721E-02  2.351552E+01
     5.7000   -1.340913E-02  1.344633E-02  2.363635E+01
     5.7500   -1.646488E-02  1.688182E-02  2.378466E+01
     5.8000   -1.967852E-02  2.140460E-02  2.396629E+01
     5.8500   -2.165135E-02  2.663171E-02  2.418347E+01
     5.9000   -2.144304E-02  3.268201E-02  2.441709E+01
     5.9500   -1.788504E-02  3.944097E-02  2.466209E+01
     6.0000   -1.011242E-02  4.679186E-02  2.491491E+01
     6.0500    2.696448E-03  5.419642E-02  2.518252E+01
     6.1000    1.946747E-02  6.195238E-02  2.545239E+01
     6.1500    3.897772E-02  6.994306E-02  2.572385E+01
     6.2000    5.933649E-02  7.804975E-02  2.599642E+01
     6.2500    7.817615E-02  8.615338E-02  2.626981E+01
     6.3000    9.293781E-02  9.413620E-02  2.654380E+01
     6.3500    1.012140E-01  1.018835E-01  2.681825E+01
     6.4000    1.010997E-01  1.092853E-01  2.709304E+01
     6.4500    9.150089E-02  1.162378E-01  2.736810E+01
     6.5000    7.235057E-02  1.226449E-01  2.764338E+01
     6.5500    4.382083E-02  1.280302E-01  2.792500E+01
     6.6000    9.043834E-03  1.327293E-01  2.820614E+01
     6.6500   -2.882298E-02  1.366767E-01  2.848681E+01
     6.7000   -6.613273E-02  1.398179E-01  2.876702E+01
     6.7500   -9.917384E-02  1.421101E-01  2.904675E+01
     6.8000   -1.246124E-01  1.435223E-01  2.932599E+01
     6.8500   -1.398927E-01  1.440359E-01  2.960470E+01
     6.9000   -1.435426E-01  1.436448E-01  2.988284E+01
     6.9500   -1.353418E-01  1.423552E-01  3.016033E+01
     7.0000   -1.163325E-01  1.401854E-01  3.043709E+01
     7.0500   -8.822545E-02  1.369554E-01  3.071596E+01
     7.1000   -5.450845E-02  1.329200E-01  3.099338E+01
     7.1500   -1.874401E-02  1.281281E-01  3.126911E+01
     7.2000    1.552215E-02  1.226392E-01  3.154283E+01
     7.2500    4.518490E-02  1.165226E-01  3.181415E+01
     7.3000    6.792444E-02  1.098573E-01  3.208250E+01
     7.3500    8.242839E-02  1.027314E-01  3.234718E+01
     7.4000    8.846607E-02  9.524275E-02  3.260722E+01
     7.4500    8.681228E-02  8.749935E-02  3.286132E+01
     7.5000    7.903923E-02  7.962144E-02  3.310773E+01
     7.5500    6.714630E-02  7.168000E-02  3.334429E+01
     7.6000    5.346674E-02  6.390745E-02  3.356642E+01
     7.6500    4.006580E-02  5.650623E-02  3.376937E+01
     7.7000    2.850287E-02  4.973032E-02  3.394718E+01
     7.7500    1.964411E-02  4.389962E-02  3.409358E+01
     7.8000    1.360395E-02  3.939466E-02  3.420493E+01
     7.8500    9.817904E-03  3.659166E-02  3.428588E+01
     7.9000    7.228584E-03  3.571141E-02  3.435369E+01
     7.9500    4.549241E-03  3.666787E-02  3.443313E+01
     8.0000    5.579451E-04  3.908409E-02  3.454324E+01
     8.0500   -5.708743E-03  4.258596E-02  3.469198E+01
     8.1000   -1.458833E-02  4.662113E-02  3.487578E+01
     8.1500   -2.573325E-02  5.084843E-02  3.508815E+01
     8.2000   -3.812312E-02  5.503394E-02  3.532277E+01
     8.2500   -5.020372E-02  5.902385E-02  3.557458E+01
     8.3000   -6.012801E-02  6.272044E-02  3.583980E+01
     8.3500   -6.605979E-02  6.606507E-02  3.611568E+01
     8.4000   -6.649091E-02  6.902690E-02  3.640022E+01
     8.4500   -6.052047E-02  7.159540E-02  3.669196E+01
     8.5000   -4.805035E-02  7.377520E-02  3.698981E+01
     8.5500   -2.980759E-02  7.566462E-02  3.729419E+01
     8.6000   -7.397289E-03  7.718312E-02  3.760312E+01
     8.6500    1.686546E-02  7.835896E-02  3.791604E+01
     8.7000    4.028044E-02  7.922485E-02  3.823247E+01
     8.7500    6.011544E-02  7.981594E-02  3.855199E+01
     8.8000    7.397226E-02  8.016818E-02  3.887417E+01
     8.8500    8.011259E-02  8.031658E-02  3.919862E+01
     8.9000    7.769718E-02  8.029382E-02  3.952492E+01
     8.9500    6.690478E-02  8.012892E-02  3.985264E+01
     9.0000    4.891518E-02  7.984624E-02  4.018134E+01
     9.0500    2.571236E-02  7.947760E-02  4.051126E+01
     9.1000   -5.234208E-05  7.900889E-02  4.084137E+01
     9.1500   -2.545988E-02  7.845016E-02  4.117123E+01
     9.2000   -4.768642E-02  7.780617E-02  4.150041E+01
     9.2500   -6.434613E-02  7.707686E-02  4.182853E+01
     9.3000   -7.376694E-02  7.625807E-02  4.215519E+01
     9.3500   -7.516536E-02  7.534237E-02  4.248006E+01
     9.4000   -6.870196E-02  7.432016E-02  4.280282E+01
     9.4500   -5.541619E-02  7.318063E-02  4.312320E+01
     9.5000   -3.705556E-02  7.191284E-02  4.344096E+01
     9.5500   -1.577349E-02  7.057592E-02  4.375690E+01
     9.6000    6.040211E-03  6.909233E-02  4.406983E+01
     9.6500    2.609886E-02  6.745592E-02  4.437957E+01
     9.7000    4.248285E-02  6.566303E-02  4.468592E+01
     9.7500    5.383180E-02  6.371300E-02  4.498870E+01
     9.8000    5.945147E-02  6.160840E-02  4.528770E+01
     9.8500    5.932925E-02  5.935529E-02  4.558271E+01
     9.9000    5.406463E-02  5.696322E-02  4.587348E+01
     9.9500    4.473197E-02  5.444534E-02  4.615969E+01
    10.0000    3.270015E-02  5.181835E-02  4.644098E+01
    10.0500    1.944247E-02  4.924225E-02  4.671800E+01
    10.1000    6.269374E-03  4.659736E-02  4.698894E+01
    10.1500   -5.657221E-03  4.391060E-02  4.725308E+01
    10.2000   -1.550524E-02  4.121306E-02  4.750960E+01
    10.2500   -2.281825E-02  3.854043E-02  4.775750E+01
    10.3000   -2.750524E-02  3.593353E-02  4.799563E+01
    10.3500   -2.978305E-02  3.343880E-02  4.822271E+01
    10.4000   -3.008544E-02  3.110866E-02  4.843750E+01
    10.4500   -2.895596E-02  2.900105E-02  4.863891E+01
    10.5000   -2.694185E-02  2.717756E-02  4.882649E+01
    10.5500   -2.450441E-02  2.569903E-02  4.900079E+01
    10.6000   -2.195692E-02  2.461801E-02  4.916394E+01
    10.6500   -1.943652E-02  2.396898E-02  4.931979E+01
    10.7000   -1.691074E-02  2.375932E-02  4.947349E+01
    10.7500   -1.421466E-02  2.396546E-02  4.963054E+01
    10.8000   -1.111037E-02  2.453671E-02  4.979557E+01
    10.8500   -7.358077E-03  2.540504E-02  4.997164E+01
    10.9000   -2.786999E-03  2.649634E-02  5.016010E+01
    10.9500    2.645099E-03  2.773935E-02  5.036098E+01
    11.0000    8.812986E-03  2.907065E-02  5.057349E+01
    11.0500    1.555826E-02  3.054156E-02  5.079998E+01
    11.1000    2.227690E-02  3.200529E-02  5.103535E+01
    11.1500    2.836053E-02  3.343057E-02  5.127833E+01
    11.2000    3.315154E-02  3.479317E-02  5.152787E+01
    11.2500    3.602333E-02  3.607430E-02  5.178311E+01
    11.3000    3.646322E-02  3.725935E-02  5.204337E+01
    11.3500    3.414808E-02  3.833681E-02  5.230811E+01
    11.4000    2.900345E-02  3.929756E-02  5.257690E+01
    11.4500    2.123826E-02  4.013427E-02  5.284944E+01
    11.5000    1.134941E-02  4.084106E-02  5.312548E+01
    11.5500    9.331926E-05  4.141327E-02  5.340482E+01
    11.6000   -1.157522E-02  4.184737E-02  5.368734E+01
    11.6500   -2.259244E-02  4.214093E-02  5.397290E+01
    11.7000   -3.189519E-02  4.229264E-02  5.426144E+01
    11.7500   -3.853911E-02  4.230245E-02  5.455287E+01
    11.8000   -4.181161E-02  4.217158E-02  5.484712E+01
    11.8500   -4.132483E-02  4.190265E-02  5.514413E+01
    11.9000   -3.707521E-02  4.149969E-02  5.544384E+01
    11.9500   -2.945951E-02  4.096820E-02  5.574619E+01
    12.0000   -1.924243E-02  4.031505E-02  5.605109E+01
    12.0500   -7.450040E-03  3.970702E-02  5.635992E+01
    12.1000    4.765655E-03  3.899731E-02  5.667118E+01
    12.1500    1.613441E-02  3.819457E-02  5.698479E+01
    12.2000    2.548522E-02  3.730787E-02  5.730067E+01
    12.2500    3.188433E-02  3.634644E-02  5.761874E+01
    12.3000    3.474498E-02  3.531950E-02  5.793885E+01
    12.3500    3.389428E-02  3.423594E-02  5.826086E+01
    12.4000    2.958757E-02  3.310410E-02  5.858457E+01
    12.4500    2.246819E-02  3.193156E-02  5.890976E+01
    12.5000    1.347795E-02  3.072488E-02  5.923615E+01
    12.5500    3.730592E-03  2.948950E-02  5.956341E+01
    12.6000   -5.634047E-03  2.822961E-02  5.989119E+01
    12.6500   -1.359480E-02  2.694810E-02  6.021904E+01
    12.7000   -1.937274E-02  2.564667E-02  6.054648E+01
    12.7500   -2.251671E-02  2.432594E-02  6.087294E+01
    12.8000   -2.293973E-02  2.298571E-02  6.119779E+01
    12.8500   -2.090278E-02  2.162528E-02  6.152028E+01
    12.9000   -1.695039E-02  2.024395E-02  6.183952E+01
    12.9500   -1.180959E-02  1.884149E-02  6.215443E+01
    13.0000   -6.269236E-03  1.741892E-02  6.246368E+01
    13.0500   -1.026753E-03  1.602826E-02  6.276775E+01
    13.1000    3.338541E-03  1.462069E-02  6.306223E+01
    13.1500    6.470891E-03  1.320684E-02  6.334390E+01
    13.2000    8.271693E-03  1.180504E-02  6.360822E+01
    13.2500    8.883683E-03  1.044582E-02  6.384870E+01
    13.3000    8.634297E-03  9.178972E-03  6.405642E+01
    13.3500    7.949856E-03  8.083396E-03  6.422063E+01
    13.4000    7.256948E-03  7.274473E-03  6.433322E+01
    13.4500    6.889228E-03  6.889246E-03  6.440038E+01
    13.5000    7.016579E-03  7.025309E-03  6.445251E+01
    13.5500    7.609364E-03  7.671446E-03  6.452996E+01
    13.6000    8.444098E-03  8.720331E-03  6.465502E+01
    13.6500    9.149417E-03  1.004212E-02  6.482749E+01
    13.7000    9.283942E-03  1.153077E-02  6.503753E+01
    13.7500    8.431868E-03  1.311042E-02  6.527485E+01
    13.8000    6.298743E-03  1.472753E-02  6.553152E+01
    13.8500    2.789672E-03  1.634283E-02  6.580191E+01
    13.9000   -1.945048E-03  1.792599E-02  6.608216E+01
    13.9500   -7.506358E-03  1.945238E-02  6.636961E+01
    14.0000   -1.328732E-02  2.090130E-02  6.666238E+01
    14.0500   -1.861967E-02  2.231730E-02  6.696034E+01
    14.1000   -2.268964E-02  2.362845E-02  6.726141E+01
    14.1500   -2.481554E-02  2.482083E-02  6.756488E+01
    14.2000   -2.451939E-02  2.588239E-02  6.787022E+01
    14.2500   -2.161350E-02  2.680293E-02  6.817702E+01
    14.3000   -1.624629E-02  2.757412E-02  6.848499E+01
    14.3500   -8.898785E-03  2.818945E-02  6.879387E+01
    14.4000   -3.312345E-04  2.864429E-02  6.910347E+01
    14.4500    8.512901E-03  2.893587E-02  6.941366E+01
    14.5000    1.663149E-02  2.906328E-02  6.972429E+01
    14.5500    2.309819E-02  2.902741E-02  7.003526E+01
    14.6000    2.718683E-02  2.883094E-02  7.034649E+01
    14.6500    2.846713E-02  2.847824E-02  7.065790E+01
    14.7000    2.685800E-02  2.797530E-02  7.096941E+01
    14.7500    2.263120E-02  2.732959E-02  7.128095E+01
    14.8000    1.636588E-02  2.654998E-02  7.159245E+01
    14.8500    8.861841E-03  2.564653E-02  7.190382E+01
    14.9000    1.025502E-03  2.463040E-02  7.221498E+01
    14.9500   -6.253785E-03  2.351364E-02  7.252583E+01
    15.0000   -1.221879E-02  2.230904E-02  7.283625E+01
    15.0500   -1.640767E-02  2.108656E-02  7.314828E+01
    15.1000   -1.847308E-02  1.979692E-02  7.345965E+01
    15.1500   -1.842279E-02  1.845309E-02  7.377012E+01
    15.2000   -1.652925E-02  1.706815E-02  7.407938E+01
    15.2500   -1.326730E-02  1.565523E-02  7.438703E+01
    15.3000   -9.227795E-03  1.422736E-02  7.469249E+01
    15.3500   -5.021871E-03  1.279741E-02  7.499497E+01
    15.4000   -1.191136E-03  1.137812E-02  7.529334E+01
    15.4500    1.862829E-03  9.982238E-03  7.558594E+01
    15.5000    3.920323E-03  8.622817E-03  7.587020E+01
    15.5500    4.952513E-03  7.313996E-03  7.614208E+01
    15.6000    5.098950E-03  6.072583E-03  7.639489E+01
    15.6500    4.619987E-03  4.921464E-03  7.661719E+01
    15.7000    3.834071E-03  3.897045E-03  7.678900E+01
    15.7500    3.051679E-03  3.064212E-03  7.687854E+01
    15.8000    2.517330E-03  2.533283E-03  7.685673E+01
    15.8500    2.368961E-03  2.419247E-03  7.676477E+01
    15.9000    2.620365E-03  2.698803E-03  7.672733E+01
    15.9500    3.168100E-03  3.212134E-03  7.680325E+01
    16.0000    3.820043E-03  3.820044E-03  7.696870E+01
    16.0500    4.364701E-03  4.470782E-03  7.718729E+01
    16.1000    4.551953E-03  5.111226E-03  7.744120E+01
