# La2CuO4, Radaelli et al, PRB 49(6) 4163 (1994)                 Feff 8.50L  
# doi:10.1103/PhysRevB.49.4163
# POT  Non-SCF, core-hole, AFOLP (folp(0)= 1.150)
# Abs   Z=29 Rmt= 1.205 Rnm= 1.322 K  shell
# Pot 1 Z=57 Rmt= 1.755 Rnm= 1.830
# Pot 2 Z=29 Rmt= 1.175 Rnm= 1.252
# Pot 3 Z= 8 Rmt= 1.031 Rnm= 1.081
# Gam_ch=1.729E+00 H-L exch
# Mu=-3.009E+00 kf=2.107E+00 Vint=-1.992E+01 Rs_int= 1.722
# PATH  Rmax= 4.000,  Keep_limit= 0.00, Heap_limit 0.00  Pwcrit= 2.50%
#  S02=0.950                                        Global_sig2= 0.00000
#  Curved wave amplitude ratio filter   4.000%
#     file         sig2 tot  cw amp ratio   deg  nlegs   reff  inp sig2
#           1       0.00000    100.00      4.00     2   1.9044
#           2       0.00000    935.80      2.00     2   2.4277
#           3       0.00000    234.00      2.00     2   3.2308
#           4       0.00000    461.10      4.00     2   3.2413
#           6       0.00000      4.54      4.00     3   3.2582
#           7       0.00000    216.20      2.00     2   3.2872
#           8       0.00000    102.40      8.00     3   3.7075
#           9       0.00000    120.40      8.00     3   3.7101
#          10       0.00000     11.33      4.00     2   3.8035
#          11       0.00000     20.03      8.00     3   3.8061
#          15       0.00000     10.24      4.00     4   3.8088
#          16       0.00000     19.61      8.00     3   3.8655
#          17       0.00000     18.40      8.00     3   3.8885
#    13/  15 paths used
#  xsedge+50, used to normalize mu           2.4354E-04
#  -----------------------------------------------------------------------
#  omega    e    k    mu    mu0     chi     @#
    8989.267     -3.000   0.050  1.22220E+00  4.94875E-01  7.66104E-01
    8989.296     -2.971   0.100  1.22877E+00  5.01642E-01  7.65599E-01
    8989.343     -2.923   0.150  1.24823E+00  5.21845E-01  7.63927E-01
    8989.410     -2.857   0.200  1.26741E+00  5.42048E-01  7.61970E-01
    8989.496     -2.771   0.250  1.29677E+00  5.73647E-01  7.58177E-01
    8989.600     -2.666   0.300  1.32538E+00  6.05245E-01  7.53617E-01
    8989.724     -2.542   0.350  1.35720E+00  6.42391E-01  7.46169E-01
    8989.867     -2.400   0.400  1.38762E+00  6.79538E-01  7.37291E-01
    8990.029     -2.238   0.450  1.41225E+00  7.14631E-01  7.24188E-01
    8990.210     -2.057   0.500  1.43470E+00  7.49725E-01  7.08897E-01
    8990.410     -1.857   0.550  1.44551E+00  7.78502E-01  6.87909E-01
    8990.629     -1.638   0.600  1.45335E+00  8.07279E-01  6.64004E-01
    8990.867     -1.399   0.650  1.44777E+00  8.29495E-01  6.33076E-01
    8991.124     -1.142   0.700  1.43860E+00  8.51712E-01  5.98710E-01
    8991.401     -0.866   0.750  1.41605E+00  8.68790E-01  5.56134E-01
    8991.696     -0.571   0.800  1.38967E+00  8.85868E-01  5.10002E-01
    8992.010     -0.256   0.850  1.35075E+00  8.99239E-01  4.55304E-01
    8992.344      0.077   0.900  1.30836E+00  9.12610E-01  3.97542E-01
    8992.696      0.429   0.950  1.25470E+00  9.23298E-01  3.31674E-01
    8993.067      0.801   1.000  1.19873E+00  9.33986E-01  2.63988E-01
    8993.458      1.191   1.050  1.13360E+00  9.42688E-01  1.89710E-01
    8993.868      1.601   1.100  1.06818E+00  9.51390E-01  1.15655E-01
    8994.296      2.030   1.150  9.96563E-01  9.58503E-01  3.75773E-02
    8994.744      2.477   1.200  9.27455E-01  9.65616E-01 -3.75618E-02
    8995.211      2.944   1.250  8.56015E-01  9.71431E-01 -1.13310E-01
    8995.696      3.430   1.300  7.90325E-01  9.77247E-01 -1.83036E-01
    8996.201      3.934   1.350  7.26613E-01  9.81922E-01 -2.49485E-01
    8996.725      4.458   1.400  6.71861E-01  9.86598E-01 -3.06921E-01
    8997.268      5.001   1.450  6.23277E-01  9.90265E-01 -3.57346E-01
    8997.830      5.563   1.500  5.86213E-01  9.93932E-01 -3.96421E-01
    8998.411      6.144   1.550  5.58620E-01  9.96664E-01 -4.25524E-01
    8999.011      6.744   1.600  5.43848E-01  9.99397E-01 -4.42130E-01
    8999.630      7.363   1.650  5.40377E-01  1.00127E+00 -4.47179E-01
    9000.268      8.002   1.700  5.49345E-01  1.00315E+00 -4.40161E-01
    9000.926      8.659   1.750  5.69534E-01  1.00425E+00 -4.21773E-01
    9001.602      9.335   1.800  5.99957E-01  1.00536E+00 -3.93442E-01
    9002.297     10.030   1.850  6.39488E-01  1.00576E+00 -3.55756E-01
    9003.011     10.745   1.900  6.85510E-01  1.00616E+00 -3.11698E-01
    9003.745     11.478   1.950  7.36975E-01  1.00586E+00 -2.61733E-01
    9004.497     12.231   2.000  7.90311E-01  1.00557E+00 -2.09810E-01
    9005.269     13.002   2.050  8.45815E-01  1.00456E+00 -1.55039E-01
    9006.059     13.793   2.100  8.97969E-01  1.00356E+00 -1.03329E-01
    9006.869     14.602   2.150  9.44830E-01  1.00256E+00 -5.66033E-02
    9007.698     15.431   2.200  9.85091E-01  1.00156E+00 -1.61772E-02
    9008.546     16.279   2.250  1.01874E+00  9.99664E-01  1.87947E-02
    9009.412     17.146   2.300  1.04524E+00  9.97770E-01  4.69027E-02
    9010.298     18.031   2.350  1.06504E+00  9.95877E-01  6.85333E-02
    9011.203     18.936   2.400  1.07895E+00  9.93984E-01  8.44256E-02
    9012.127     19.860   2.450  1.09033E+00  9.93833E-01  9.62363E-02
    9013.070     20.803   2.500  1.09744E+00  9.93683E-01  1.03848E-01
    9014.032     21.765   2.550  1.10119E+00  9.93533E-01  1.08151E-01
    9015.013     22.746   2.600  1.10243E+00  9.93383E-01  1.09941E-01
    9016.013     23.746   2.650  1.10295E+00  9.93963E-01  1.10014E-01
    9017.032     24.766   2.700  1.10212E+00  9.94542E-01  1.08723E-01
    9018.070     25.804   2.750  1.10036E+00  9.95122E-01  1.06486E-01
    9019.128     26.861   2.800  1.09793E+00  9.95702E-01  1.03563E-01
    9020.204     27.937   2.850  1.09529E+00  9.95987E-01  1.00586E-01
    9021.299     29.033   2.900  1.09177E+00  9.96273E-01  9.67273E-02
    9022.414     30.147   2.950  1.08734E+00  9.96558E-01  9.19357E-02
    9023.547     31.281   3.000  1.08190E+00  9.96843E-01  8.61268E-02
    9024.700     32.433   3.050  1.07472E+00  9.96955E-01  7.86889E-02
    9025.871     33.605   3.100  1.06613E+00  9.97067E-01  6.98265E-02
    9027.062     34.795   3.150  1.05621E+00  9.97179E-01  5.96456E-02
    9028.272     36.005   3.200  1.04518E+00  9.97291E-01  4.83504E-02
    9029.500     37.234   3.250  1.03342E+00  9.97635E-01  3.60978E-02
    9030.748     38.482   3.300  1.02121E+00  9.97980E-01  2.34121E-02
    9032.015     39.748   3.350  1.00898E+00  9.98325E-01  1.07297E-02
    9033.301     41.034   3.400  9.97184E-01  9.98670E-01 -1.49496E-03
    9034.606     42.339   3.450  9.86065E-01  9.98872E-01 -1.28651E-02
    9035.930     43.663   3.500  9.76072E-01  9.99074E-01 -2.30768E-02
    9037.273     45.006   3.550  9.67501E-01  9.99276E-01 -3.18363E-02
    9038.635     46.368   3.600  9.60553E-01  9.99478E-01 -3.89486E-02
    9040.016     47.749   3.650  9.55154E-01  9.99999E-01 -4.48096E-02
    9041.416     49.149   3.700  9.51180E-01  1.00052E+00 -4.92339E-02
    9042.835     50.569   3.750  9.48556E-01  1.00104E+00 -5.22995E-02
    9044.274     52.007   3.800  9.47141E-01  1.00156E+00 -5.41537E-02
    9045.731     53.464   3.850  9.45964E-01  1.00231E+00 -5.59889E-02
    9047.207     54.941   3.900  9.45670E-01  1.00306E+00 -5.69425E-02
    9048.703     56.436   3.950  9.46194E-01  1.00381E+00 -5.70833E-02
    9050.217     57.951   4.000  9.47493E-01  1.00455E+00 -5.64566E-02
    9051.751     59.484   4.050  9.48997E-01  1.00516E+00 -5.54833E-02
    9053.303     61.037   4.100  9.51728E-01  1.00578E+00 -5.33016E-02
    9054.875     62.608   4.150  9.55806E-01  1.00639E+00 -4.98022E-02
    9056.466     64.199   4.200  9.61333E-01  1.00700E+00 -4.48887E-02
    9058.075     65.809   4.250  9.69105E-01  1.00800E+00 -3.81721E-02
    9059.704     67.437   4.300  9.78762E-01  1.00900E+00 -2.96293E-02
    9061.352     69.085   4.350  9.90174E-01  1.01000E+00 -1.93965E-02
    9063.019     70.752   4.400  1.00309E+00  1.01100E+00 -7.72260E-03
    9064.705     72.438   4.450  1.01769E+00  1.01190E+00  5.64721E-03
    9066.410     74.143   4.500  1.03298E+00  1.01280E+00  1.96569E-02
    9068.134     75.867   4.550  1.04828E+00  1.01369E+00  3.36343E-02
    9069.877     77.610   4.600  1.06283E+00  1.01459E+00  4.68473E-02
    9071.639     79.372   4.650  1.07615E+00  1.01534E+00  5.89966E-02
    9073.420     81.153   4.700  1.08708E+00  1.01608E+00  6.87883E-02
    9075.220     82.954   4.750  1.09488E+00  1.01683E+00  7.55393E-02
    9077.039     84.773   4.800  1.09901E+00  1.01757E+00  7.87226E-02
    9078.878     86.611   4.850  1.09922E+00  1.01824E+00  7.82059E-02
    9080.735     88.469   4.900  1.09506E+00  1.01891E+00  7.34799E-02
    9082.612     90.345   4.950  1.08670E+00  1.01958E+00  6.47082E-02
    9084.507     92.240   5.000  1.07458E+00  1.02025E+00  5.23299E-02
    9086.422     94.155   5.050  1.05896E+00  1.02066E+00  3.68763E-02
    9088.355     96.088   5.100  1.04107E+00  1.02106E+00  1.92533E-02
    9090.308     98.041   5.150  1.02205E+00  1.02147E+00  5.58767E-04
    9092.279    100.013   5.200  1.00312E+00  1.02187E+00 -1.80239E-02
    9094.270    102.003   5.250  9.84888E-01  1.02196E+00 -3.56459E-02
    9096.280    104.013   5.300  9.69135E-01  1.02206E+00 -5.08805E-02
    9098.309    106.042   5.350  9.56884E-01  1.02215E+00 -6.27489E-02
    9100.357    108.090   5.400  9.48895E-01  1.02224E+00 -7.05194E-02
    9102.424    110.157   5.450  9.45229E-01  1.02204E+00 -7.38800E-02
    9104.509    112.243   5.500  9.46508E-01  1.02185E+00 -7.24840E-02
    9106.614    114.348   5.550  9.52473E-01  1.02165E+00 -6.65767E-02
    9108.739    116.472   5.600  9.62525E-01  1.02145E+00 -5.67313E-02
    9110.882    118.615   5.650  9.75525E-01  1.02096E+00 -4.37724E-02
    9113.044    120.777   5.700  9.90694E-01  1.02047E+00 -2.87051E-02
    9115.225    122.958   5.750  1.00680E+00  1.01998E+00 -1.27120E-02
    9117.425    125.159   5.800  1.02260E+00  1.01949E+00  3.00420E-03
    9119.645    127.378   5.850  1.03677E+00  1.01876E+00  1.74101E-02
    9121.883    129.616   5.900  1.04847E+00  1.01803E+00  2.94478E-02
    9124.140    131.874   5.950  1.05694E+00  1.01730E+00  3.83833E-02
    9126.417    134.150   6.000  1.06173E+00  1.01656E+00  4.37765E-02
    9128.712    136.446   6.050  1.06262E+00  1.01561E+00  4.56145E-02
    9131.027    138.760   6.100  1.05982E+00  1.01465E+00  4.38823E-02
    9133.361    141.094   6.150  1.05384E+00  1.01370E+00  3.90476E-02
    9135.713    143.447   6.200  1.04541E+00  1.01274E+00  3.18144E-02
    9138.085    145.818   6.250  1.03542E+00  1.01178E+00  2.30451E-02
    9140.476    148.209   6.300  1.02483E+00  1.01083E+00  1.36713E-02
    9142.886    150.619   6.350  1.01458E+00  1.00987E+00  4.60294E-03
    9145.314    153.048   6.400  1.00548E+00  1.00891E+00 -3.35614E-03
    9147.762    155.496   6.450  9.98179E-01  1.00796E+00 -9.57818E-03
    9150.229    157.963   6.500  9.93072E-01  1.00700E+00 -1.36606E-02
    9152.715    160.449   6.550  9.90170E-01  1.00606E+00 -1.55986E-02
    9155.220    162.954   6.600  9.89613E-01  1.00512E+00 -1.52365E-02
    9157.744    165.478   6.650  9.91101E-01  1.00417E+00 -1.28621E-02
    9160.288    168.021   6.700  9.94125E-01  1.00323E+00 -8.96882E-03
    9162.850    170.583   6.750  9.98036E-01  1.00229E+00 -4.19379E-03
    9165.431    173.164   6.800  1.00211E+00  1.00135E+00  7.56154E-04
    9168.031    175.765   6.850  1.00565E+00  1.00040E+00  5.18406E-03
    9170.651    178.384   6.900  1.00803E+00  9.99461E-01  8.47894E-03
    9173.289    181.023   6.950  1.00880E+00  9.98518E-01  1.01809E-02
    9175.947    183.680   7.000  1.00769E+00  9.97576E-01  1.00286E-02
    9178.623    186.357   7.050  1.00504E+00  9.96829E-01  8.14398E-03
    9181.319    189.052   7.100  1.00063E+00  9.96082E-01  4.51485E-03
    9184.033    191.767   7.150  9.94805E-01  9.95335E-01 -5.26049E-04
    9186.767    194.500   7.200  9.88084E-01  9.94588E-01 -6.46985E-03
    9189.520    197.253   7.250  9.81101E-01  9.93841E-01 -1.26834E-02
    9192.292    200.025   7.300  9.74553E-01  9.93094E-01 -1.84744E-02
    9195.082    202.816   7.350  9.69119E-01  9.92347E-01 -2.31637E-02
    9197.892    205.626   7.400  9.65392E-01  9.91600E-01 -2.61569E-02
    9200.721    208.454   7.450  9.63815E-01  9.90853E-01 -2.70085E-02
    9203.569    211.302   7.500  9.64628E-01  9.90106E-01 -2.54716E-02
    9206.436    214.169   7.550  9.67927E-01  9.89501E-01 -2.15842E-02
    9209.322    217.055   7.600  9.73365E-01  9.88897E-01 -1.55504E-02
    9212.227    219.961   7.650  9.80526E-01  9.88292E-01 -7.78095E-03
    9215.151    222.885   7.700  9.88818E-01  9.87687E-01  1.13349E-03
    9218.095    225.828   7.750  9.97520E-01  9.87083E-01  1.04727E-02
    9221.057    228.790   7.800  1.00585E+00  9.86478E-01  1.94500E-02
    9224.038    231.772   7.850  1.01303E+00  9.85873E-01  2.72828E-02
    9227.039    234.772   7.900  1.01835E+00  9.85269E-01  3.32648E-02
    9230.058    237.791   7.950  1.02127E+00  9.84664E-01  3.68314E-02
    9233.096    240.830   8.000  1.02141E+00  9.84060E-01  3.76145E-02
    9236.154    243.887   8.050  1.01851E+00  9.83330E-01  3.54666E-02
    9239.231    246.964   8.100  1.01288E+00  9.82601E-01  3.05587E-02
    9242.326    250.059   8.150  1.00488E+00  9.81871E-01  2.32475E-02
    9245.441    253.174   8.200  9.95082E-01  9.81142E-01  1.40961E-02
    9248.575    256.308   8.250  9.84194E-01  9.80413E-01  3.82729E-03
    9251.727    259.461   8.300  9.73036E-01  9.79683E-01 -6.73650E-03
    9254.899    262.632   8.350  9.62449E-01  9.78954E-01 -1.67431E-02
    9258.090    265.823   8.400  9.53228E-01  9.78225E-01 -2.53832E-02
    9261.300    269.033   8.450  9.46055E-01  9.77495E-01 -3.19599E-02
    9264.529    272.262   8.500  9.41439E-01  9.76766E-01 -3.59487E-02
    9267.777    275.510   8.550  9.39390E-01  9.75760E-01 -3.70557E-02
    9271.044    278.777   8.600  9.40215E-01  9.74753E-01 -3.52343E-02
    9274.330    282.063   8.650  9.43721E-01  9.73747E-01 -3.06700E-02
    9277.635    285.369   8.700  9.49493E-01  9.72741E-01 -2.37759E-02
    9280.959    288.693   8.750  9.56934E-01  9.71734E-01 -1.51559E-02
    9284.303    292.036   8.800  9.65312E-01  9.70728E-01 -5.55273E-03
    9287.665    295.398   8.850  9.73828E-01  9.69721E-01  4.21652E-03
    9291.046    298.780   8.900  9.81683E-01  9.68715E-01  1.33307E-02
    9294.447    302.180   8.950  9.88146E-01  9.67709E-01  2.10354E-02
    9297.866    305.600   9.000  9.92617E-01  9.66702E-01  2.67075E-02
    9301.305    309.038   9.050  9.94570E-01  9.65626E-01  2.98753E-02
    9304.762    312.496   9.100  9.93965E-01  9.64549E-01  3.04079E-02
    9308.239    315.972   9.150  9.90836E-01  9.63472E-01  2.83290E-02
    9311.735    319.468   9.200  9.85434E-01  9.62396E-01  2.38878E-02
    9315.249    322.983   9.250  9.78204E-01  9.61319E-01  1.75338E-02
    9318.783    326.516   9.300  9.69738E-01  9.60242E-01  9.87591E-03
    9322.336    330.069   9.350  9.60728E-01  9.59166E-01  1.62701E-03
    9325.908    333.641   9.400  9.51897E-01  9.58089E-01 -6.45986E-03
    9329.499    337.232   9.450  9.43940E-01  9.57013E-01 -1.36585E-02
    9333.109    340.842   9.500  9.37459E-01  9.55936E-01 -1.93338E-02
    9336.738    344.471   9.550  9.32968E-01  9.54822E-01 -2.28973E-02
    9340.386    348.119   9.600  9.30665E-01  9.53709E-01 -2.41742E-02
    9344.053    351.786   9.650  9.30602E-01  9.52595E-01 -2.31016E-02
    9347.739    355.472   9.700  9.32626E-01  9.51482E-01 -1.98313E-02
    9351.444    359.177   9.750  9.36396E-01  9.50369E-01 -1.47138E-02
    9355.168    362.902   9.800  9.41417E-01  9.49255E-01 -8.26435E-03
    9358.912    366.645   9.850  9.47086E-01  9.48142E-01 -1.11469E-03
    9362.674    370.407   9.900  9.52747E-01  9.47028E-01  6.04530E-03
    9366.455    374.189   9.950  9.57754E-01  9.45915E-01  1.25310E-02
    9370.256    377.989  10.000  9.61527E-01  9.44801E-01  1.77255E-02
    9374.075    381.809  10.050  9.63708E-01  9.43885E-01  2.10263E-02
    9377.914    385.647  10.100  9.63905E-01  9.42969E-01  2.22259E-02
    9381.772    389.505  10.150  9.62024E-01  9.42052E-01  2.12207E-02
    9385.648    393.382  10.200  9.58168E-01  9.41136E-01  1.81125E-02
    9389.544    397.277  10.250  9.52619E-01  9.40220E-01  1.31971E-02
    9393.459    401.192  10.300  9.45816E-01  9.39304E-01  6.93749E-03
    9397.392    405.126  10.350  9.38313E-01  9.38387E-01 -7.98773E-05
    9401.345    409.079  10.400  9.30726E-01  9.37471E-01 -7.19830E-03
    9405.317    413.051  10.450  9.23680E-01  9.36555E-01 -1.37509E-02
    9409.308    417.042  10.500  9.17752E-01  9.35639E-01 -1.91211E-02
    9413.318    421.052  10.550  9.13414E-01  9.34722E-01 -2.27988E-02
    9417.347    425.081  10.600  9.10996E-01  9.33806E-01 -2.44261E-02
    9421.395    429.129  10.650  9.10656E-01  9.32890E-01 -2.38304E-02
    9425.463    433.196  10.700  9.12361E-01  9.31974E-01 -2.10395E-02
    9429.549    437.282  10.750  9.15894E-01  9.31057E-01 -1.62800E-02
    9433.654    441.387  10.800  9.20876E-01  9.30141E-01 -9.95675E-03
    9437.778    445.512  10.850  9.26792E-01  9.29225E-01 -2.61722E-03
    9441.922    449.655  10.900  9.33044E-01  9.28309E-01  5.09713E-03
    9446.084    453.817  10.950  9.39002E-01  9.27393E-01  1.25079E-02
    9450.266    457.999  11.000  9.44058E-01  9.26476E-01  1.89601E-02
    9454.466    462.199  11.050  9.47579E-01  9.25473E-01  2.38629E-02
    9458.686    466.419  11.100  9.49247E-01  9.24469E-01  2.67733E-02
    9462.924    470.658  11.150  9.48823E-01  9.23465E-01  2.74272E-02
    9467.182    474.915  11.200  9.46251E-01  9.22461E-01  2.57568E-02
    9471.459    479.192  11.250  9.41662E-01  9.21458E-01  2.18963E-02
    9475.754    483.488  11.300  9.35359E-01  9.20454E-01  1.61698E-02
    9480.069    487.802  11.350  9.27795E-01  9.19450E-01  9.06218E-03
    9484.403    492.136  11.400  9.19529E-01  9.18447E-01  1.17659E-03
    9488.756    496.489  11.450  9.11177E-01  9.17443E-01 -6.81846E-03
    9493.128    500.861  11.500  9.03359E-01  9.16439E-01 -1.42473E-02
    9497.519    505.252  11.550  8.96647E-01  9.15435E-01 -2.04856E-02
    9501.929    509.662  11.600  8.91513E-01  9.14432E-01 -2.50140E-02
    9506.358    514.091  11.650  8.88291E-01  9.13428E-01 -2.74622E-02
    9510.806    518.540  11.700  8.87151E-01  9.12424E-01 -2.76394E-02
    9515.273    523.007  11.750  8.88082E-01  9.11421E-01 -2.55495E-02
    9519.760    527.493  11.800  8.90899E-01  9.10417E-01 -2.13889E-02
    9524.265    531.998  11.850  8.95258E-01  9.09413E-01 -1.55275E-02
    9528.789    536.523  11.900  9.00691E-01  9.08409E-01 -8.47538E-03
    9533.333    541.066  11.950  9.06644E-01  9.07406E-01 -8.36952E-04
    9537.895    545.629  12.000  9.12529E-01  9.06402E-01  6.74161E-03
    9542.477    550.210  12.050  9.17562E-01  9.05172E-01  1.36509E-02
    9547.077    554.811  12.100  9.21434E-01  9.03942E-01  1.92985E-02
    9551.697    559.430  12.150  9.23742E-01  9.02712E-01  2.32333E-02
    9556.335    564.069  12.200  9.24223E-01  9.01483E-01  2.51582E-02
    9560.993    568.727  12.250  9.22777E-01  9.00253E-01  2.49529E-02
    9565.670    573.403  12.300  9.19468E-01  8.99023E-01  2.26812E-02
    9570.366    578.099  12.350  9.14520E-01  8.97793E-01  1.85820E-02
    9575.081    582.814  12.400  9.08291E-01  8.96563E-01  1.30456E-02
    9579.815    587.548  12.450  9.01237E-01  8.95333E-01  6.57655E-03
    9584.567    592.301  12.500  8.93878E-01  8.94103E-01 -2.51658E-04
    9589.339    597.073  12.550  8.86743E-01  8.92874E-01 -6.84815E-03
    9594.131    601.864  12.600  8.80329E-01  8.91644E-01 -1.26560E-02
    9598.941    606.674  12.650  8.75058E-01  8.90414E-01 -1.71999E-02
    9603.770    611.503  12.700  8.71241E-01  8.89184E-01 -2.01254E-02
    9608.618    616.351  12.750  8.69055E-01  8.87954E-01 -2.12275E-02
    9613.485    621.219  12.800  8.68530E-01  8.86724E-01 -2.04645E-02
    9618.372    626.105  12.850  8.69550E-01  8.85494E-01 -1.79583E-02
    9623.277    631.010  12.900  8.71870E-01  8.84265E-01 -1.39795E-02
